radius  u   sigma_rr   sigma_tt   sigma_zz  eps_rr   eps_tt   eps_zz  eps_p_rr   eps_p_tt   eps_p_zz
4  2.54403e-05   0.00124267   0.00124267   0.00124267   0   0   0   0   0   0
3.99805  2.54423e-05   0.00123666   0.0135668   0.0029607   -1.03442e-06   6.36368e-06   0   -4.23516e-22   8.47033e-22   -4.23516e-22
3.9961  2.54443e-05   0.00123065   0.0135729   0.0029607   -1.03803e-06   6.36729e-06   0   -6.35275e-22   -1.69407e-21   -6.35275e-22
3.99415  2.54464e-05   0.00122463   0.0135789   0.0029607   -1.04164e-06   6.37091e-06   0   -4.23516e-22   8.47033e-22   -4.23516e-22
3.9922  2.54484e-05   0.0012186   0.0135849   0.0029607   -1.04526e-06   6.37453e-06   0   -4.23516e-22   0   -4.23516e-22
3.99025  2.54504e-05   0.00121256   0.013591   0.0029607   -1.04889e-06   6.37816e-06   0   -6.35275e-22   -8.47033e-22   -4.23516e-22
3.9883  2.54525e-05   0.00120651   0.013597   0.00296071   -1.05252e-06   6.38179e-06   0   -4.23516e-22   -8.47033e-22   -2.11758e-22
3.98635  2.54545e-05   0.00120045   0.0136031   0.00296071   -1.05615e-06   6.38543e-06   0   -4.23516e-22   -8.47033e-22   -6.35275e-22
3.9844  2.54566e-05   0.00119438   0.0136092   0.00296071   -1.0598e-06   6.38907e-06   0   -8.47033e-22   0   -8.47033e-22
3.98245  2.54587e-05   0.00118831   0.0136152   0.00296071   -1.06344e-06   6.39272e-06   0   -4.23516e-22   8.47033e-22   -4.23516e-22
3.9805  2.54608e-05   0.00118222   0.0136213   0.00296071   -1.06709e-06   6.39637e-06   0   -2.11758e-22   0   -2.11758e-22
3.97855  2.54628e-05   0.00117613   0.0136274   0.00296071   -1.07075e-06   6.40003e-06   0   0   8.47033e-22   0
3.9766  2.54649e-05   0.00117002   0.0136335   0.00296071   -1.07441e-06   6.40369e-06   0   -4.23516e-22   8.47033e-22   -4.23516e-22
3.97465  2.5467e-05   0.00116391   0.0136397   0.00296071   -1.07808e-06   6.40736e-06   0   -6.35275e-22   -8.47033e-22   -6.35275e-22
3.9727  2.54691e-05   0.00115779   0.0136458   0.00296071   -1.08175e-06   6.41104e-06   0   -2.11758e-22   0   0
3.97075  2.54712e-05   0.00115166   0.0136519   0.00296072   -1.08543e-06   6.41472e-06   0   -8.47033e-22   0   -6.35275e-22
3.9688  2.54734e-05   0.00114552   0.0136581   0.00296072   -1.08912e-06   6.41841e-06   0   -2.11758e-22   8.47033e-22   -4.23516e-22
3.96685  2.54755e-05   0.00113938   0.0136642   0.00296072   -1.0928e-06   6.4221e-06   0   -4.23516e-22   0   -2.11758e-22
3.9649  2.54776e-05   0.00113322   0.0136704   0.00296072   -1.0965e-06   6.42579e-06   0   -6.35275e-22   0   -6.35275e-22
3.96295  2.54798e-05   0.00112705   0.0136765   0.00296072   -1.1002e-06   6.4295e-06   0   -6.35275e-22   0   -6.35275e-22
3.961  2.54819e-05   0.00112088   0.0136827   0.00296072   -1.10391e-06   6.4332e-06   0   -6.35275e-22   0   -4.23516e-22
3.95905  2.54841e-05   0.00111469   0.0136889   0.00296072   -1.10762e-06   6.43692e-06   0   -6.35275e-22   0   -4.23516e-22
3.9571  2.54862e-05   0.0011085   0.0136951   0.00296072   -1.11133e-06   6.44064e-06   0   -4.23516e-22   0   -4.23516e-22
3.95515  2.54884e-05   0.0011023   0.0137013   0.00296072   -1.11506e-06   6.44436e-06   0   -4.23516e-22   0   -4.23516e-22
3.9532  2.54906e-05   0.00109609   0.0137075   0.00296073   -1.11878e-06   6.44809e-06   0   -2.11758e-22   -8.47033e-22   -2.11758e-22
3.95125  2.54928e-05   0.00108987   0.0137138   0.00296073   -1.12252e-06   6.45183e-06   0   -4.23516e-22   -8.47033e-22   -4.23516e-22
3.9493  2.5495e-05   0.00108364   0.01372   0.00296073   -1.12626e-06   6.45557e-06   0   -4.23516e-22   0   -2.11758e-22
3.94735  2.54972e-05   0.0010774   0.0137262   0.00296073   -1.13e-06   6.45931e-06   0   -4.23516e-22   0   -4.23516e-22
3.9454  2.54994e-05   0.00107115   0.0137325   0.00296073   -1.13375e-06   6.46306e-06   0   -6.35275e-22   0   -6.35275e-22
3.94345  2.55016e-05   0.00106489   0.0137388   0.00296073   -1.1375e-06   6.46682e-06   0   -2.11758e-22   -8.47033e-22   -2.11758e-22
3.9415  2.55038e-05   0.00105862   0.013745   0.00296073   -1.14127e-06   6.47058e-06   0   -4.23516e-22   0   -4.23516e-22
3.93955  2.5506e-05   0.00105235   0.0137513   0.00296073   -1.14503e-06   6.47435e-06   0   -4.23516e-22   1.69407e-21   -2.11758e-22
3.9376  2.55083e-05   0.00104606   0.0137576   0.00296073   -1.1488e-06   6.47813e-06   0   -4.23516e-22   -8.47033e-22   -2.11758e-22
3.93565  2.55105e-05   0.00103977   0.0137639   0.00296074   -1.15258e-06   6.48191e-06   0   -8.47033e-22   8.47033e-22   -8.47033e-22
3.9337  2.55128e-05   0.00103346   0.0137702   0.00296074   -1.15637e-06   6.48569e-06   0   -4.23516e-22   0   -4.23516e-22
3.93175  2.5515e-05   0.00102715   0.0137765   0.00296074   -1.16015e-06   6.48948e-06   0   -4.23516e-22   0   -2.11758e-22
3.9298  2.55173e-05   0.00102082   0.0137829   0.00296074   -1.16395e-06   6.49328e-06   0   -4.23516e-22   8.47033e-22   -2.11758e-22
3.92785  2.55196e-05   0.00101449   0.0137892   0.00296074   -1.16775e-06   6.49708e-06   0   -4.23516e-22   8.47033e-22   -4.23516e-22
3.9259  2.55218e-05   0.00100815   0.0137956   0.00296074   -1.17156e-06   6.50089e-06   0   -4.23516e-22   -8.47033e-22   -4.23516e-22
3.92395  2.55241e-05   0.0010018   0.0138019   0.00296074   -1.17537e-06   6.50471e-06   0   -4.23516e-22   -8.47033e-22   -2.11758e-22
3.922  2.55264e-05   0.000995437   0.0138083   0.00296074   -1.17918e-06   6.50852e-06   0   -4.23516e-22   -8.47033e-22   -4.23516e-22
3.92005  2.55287e-05   0.000989066   0.0138147   0.00296075   -1.18301e-06   6.51235e-06   0   -6.35275e-22   0   -4.23516e-22
3.9181  2.5531e-05   0.000982686   0.013821   0.00296075   -1.18684e-06   6.51618e-06   0   -2.11758e-22   -8.47033e-22   0
3.91615  2.55334e-05   0.000976297   0.0138274   0.00296075   -1.19067e-06   6.52002e-06   0   -4.23516e-22   -8.47033e-22   -4.23516e-22
3.9142  2.55357e-05   0.000969898   0.0138338   0.00296075   -1.19451e-06   6.52386e-06   0   -4.23516e-22   0   -4.23516e-22
3.91225  2.5538e-05   0.000963489   0.0138403   0.00296075   -1.19836e-06   6.52771e-06   0   -4.23516e-22   -8.47033e-22   -2.11758e-22
3.9103  2.55404e-05   0.000957071   0.0138467   0.00296075   -1.20221e-06   6.53156e-06   0   -6.35275e-22   -8.47033e-22   -4.23516e-22
3.90835  2.55427e-05   0.000950643   0.0138531   0.00296075   -1.20607e-06   6.53542e-06   0   -2.11758e-22   -8.47033e-22   -2.11758e-22
3.9064  2.55451e-05   0.000944206   0.0138596   0.00296075   -1.20993e-06   6.53929e-06   0   -4.23516e-22   0   -4.23516e-22
3.90445  2.55474e-05   0.000937758   0.013866   0.00296076   -1.2138e-06   6.54316e-06   0   -6.35275e-22   0   -6.35275e-22
3.9025  2.55498e-05   0.000931302   0.0138725   0.00296076   -1.21767e-06   6.54703e-06   0   -4.23516e-22   8.47033e-22   -4.23516e-22
3.90055  2.55522e-05   0.000924835   0.013879   0.00296076   -1.22155e-06   6.55092e-06   0   -4.23516e-22   8.47033e-22   -4.23516e-22
3.8986  2.55546e-05   0.000918359   0.0138854   0.00296076   -1.22544e-06   6.55481e-06   0   -4.23516e-22   0   -4.23516e-22
3.89665  2.5557e-05   0.000911873   0.0138919   0.00296076   -1.22933e-06   6.5587e-06   0   -6.35275e-22   0   -4.23516e-22
3.8947  2.55594e-05   0.000905378   0.0138984   0.00296076   -1.23323e-06   6.5626e-06   0   -6.35275e-22   0   -4.23516e-22
3.89275  2.55618e-05   0.000898872   0.0139049   0.00296076   -1.23713e-06   6.56651e-06   0   -6.35275e-22   0   -4.23516e-22
3.8908  2.55642e-05   0.000892357   0.0139115   0.00296076   -1.24104e-06   6.57042e-06   0   -4.23516e-22   0   -4.23516e-22
3.88885  2.55666e-05   0.000885832   0.013918   0.00296076   -1.24496e-06   6.57434e-06   0   -4.23516e-22   0   -4.23516e-22
3.8869  2.5569e-05   0.000879297   0.0139245   0.00296077   -1.24888e-06   6.57826e-06   0   -6.35275e-22   -8.47033e-22   -4.23516e-22
3.88495  2.55715e-05   0.000872753   0.0139311   0.00296077   -1.25281e-06   6.58219e-06   0   -4.23516e-22   -8.47033e-22   -2.11758e-22
3.883  2.55739e-05   0.000866198   0.0139376   0.00296077   -1.25674e-06   6.58613e-06   0   -6.35275e-22   -8.47033e-22   -4.23516e-22
3.88105  2.55764e-05   0.000859634   0.0139442   0.00296077   -1.26068e-06   6.59007e-06   0   -2.11758e-22   -1.69407e-21   -2.11758e-22
3.8791  2.55788e-05   0.00085306   0.0139508   0.00296077   -1.26463e-06   6.59401e-06   0   -6.35275e-22   0   -4.23516e-22
3.87715  2.55813e-05   0.000846476   0.0139574   0.00296077   -1.26858e-06   6.59797e-06   0   -6.35275e-22   0   -4.23516e-22
3.8752  2.55838e-05   0.000839882   0.013964   0.00296077   -1.27254e-06   6.60193e-06   0   -6.35275e-22   0   -6.35275e-22
3.87325  2.55863e-05   0.000833277   0.0139706   0.00296077   -1.2765e-06   6.60589e-06   0   -6.35275e-22   0   -4.23516e-22
3.8713  2.55888e-05   0.000826663   0.0139772   0.00296078   -1.28047e-06   6.60986e-06   0   -8.47033e-22   0   -6.35275e-22
3.86935  2.55913e-05   0.000820039   0.0139838   0.00296078   -1.28444e-06   6.61384e-06   0   -4.23516e-22   1.69407e-21   -4.23516e-22
3.8674  2.55938e-05   0.000813405   0.0139905   0.00296078   -1.28842e-06   6.61783e-06   0   -6.35275e-22   0   -4.23516e-22
3.86545  2.55963e-05   0.000806761   0.0139971   0.00296078   -1.29241e-06   6.62181e-06   0   -2.11758e-22   0   -4.23516e-22
3.8635  2.55988e-05   0.000800107   0.0140038   0.00296078   -1.2964e-06   6.62581e-06   0   -6.35275e-22   -8.47033e-22   -6.35275e-22
3.86155  2.56014e-05   0.000793443   0.0140105   0.00296078   -1.3004e-06   6.62981e-06   0   -4.23516e-22   0   -4.23516e-22
3.8596  2.56039e-05   0.000786769   0.0140171   0.00296078   -1.30441e-06   6.63382e-06   0   -6.35275e-22   -8.47033e-22   -6.35275e-22
3.85765  2.56064e-05   0.000780084   0.0140238   0.00296078   -1.30842e-06   6.63783e-06   0   -4.23516e-22   0   -2.11758e-22
3.8557  2.5609e-05   0.00077339   0.0140305   0.00296079   -1.31244e-06   6.64185e-06   0   -6.35275e-22   0   -4.23516e-22
3.85375  2.56116e-05   0.000766685   0.0140373   0.00296079   -1.31646e-06   6.64588e-06   0   -6.35275e-22   -8.47033e-22   -4.23516e-22
3.8518  2.56141e-05   0.00075997   0.014044   0.00296079   -1.32049e-06   6.64991e-06   0   -4.23516e-22   0   -4.23516e-22
3.84985  2.56167e-05   0.000753245   0.0140507   0.00296079   -1.32453e-06   6.65395e-06   0   -8.47033e-22   0   -6.35275e-22
3.8479  2.56193e-05   0.00074651   0.0140574   0.00296079   -1.32857e-06   6.65799e-06   0   -4.23516e-22   0   -4.23516e-22
3.84595  2.56219e-05   0.000739764   0.0140642   0.00296079   -1.33262e-06   6.66204e-06   0   -2.11758e-22   0   -2.11758e-22
3.844  2.56245e-05   0.000733008   0.014071   0.00296079   -1.33667e-06   6.6661e-06   0   -6.35275e-22   0   -6.35275e-22
3.84205  2.56271e-05   0.000726242   0.0140777   0.0029608   -1.34073e-06   6.67016e-06   0   -4.23516e-22   0   -2.11758e-22
3.8401  2.56297e-05   0.000719466   0.0140845   0.0029608   -1.3448e-06   6.67423e-06   0   -4.23516e-22   -8.47033e-22   -4.23516e-22
3.83815  2.56323e-05   0.000712679   0.0140913   0.0029608   -1.34887e-06   6.67831e-06   0   -4.23516e-22   0   -2.11758e-22
3.8362  2.5635e-05   0.000705882   0.0140981   0.0029608   -1.35295e-06   6.68239e-06   0   -4.23516e-22   -8.47033e-22   -4.23516e-22
3.83425  2.56376e-05   0.000699074   0.0141049   0.0029608   -1.35704e-06   6.68648e-06   0   -2.11758e-22   -1.69407e-21   -2.11758e-22
3.8323  2.56403e-05   0.000692256   0.0141118   0.0029608   -1.36113e-06   6.69057e-06   0   -2.11758e-22   8.47033e-22   -2.11758e-22
3.83035  2.56429e-05   0.000685428   0.0141186   0.0029608   -1.36522e-06   6.69467e-06   0   -4.23516e-22   8.47033e-22   -4.23516e-22
3.8284  2.56456e-05   0.000678589   0.0141254   0.0029608   -1.36933e-06   6.69878e-06   0   -2.11758e-22   0   -2.11758e-22
3.82645  2.56483e-05   0.00067174   0.0141323   0.00296081   -1.37344e-06   6.70289e-06   0   -2.11758e-22   0   0
3.8245  2.5651e-05   0.000664881   0.0141392   0.00296081   -1.37756e-06   6.70701e-06   0   -4.23516e-22   8.47033e-22   -4.23516e-22
3.82255  2.56536e-05   0.00065801   0.014146   0.00296081   -1.38168e-06   6.71113e-06   0   -2.11758e-22   -8.47033e-22   -2.11758e-22
3.8206  2.56563e-05   0.00065113   0.0141529   0.00296081   -1.38581e-06   6.71526e-06   0   -2.11758e-22   0   -2.11758e-22
3.81865  2.5659e-05   0.000644239   0.0141598   0.00296081   -1.38994e-06   6.7194e-06   0   -6.35275e-22   8.47033e-22   -4.23516e-22
3.8167  2.56618e-05   0.000637337   0.0141667   0.00296081   -1.39409e-06   6.72355e-06   0   -6.35275e-22   0   -4.23516e-22
3.81475  2.56645e-05   0.000630424   0.0141736   0.00296081   -1.39823e-06   6.7277e-06   0   -4.23516e-22   -8.47033e-22   -2.11758e-22
3.8128  2.56672e-05   0.000623502   0.0141806   0.00296081   -1.40239e-06   6.73185e-06   0   -4.23516e-22   -8.47033e-22   -4.23516e-22
3.81085  2.567e-05   0.000616568   0.0141875   0.00296082   -1.40655e-06   6.73602e-06   0   -8.47033e-22   8.47033e-22   -6.35275e-22
3.8089  2.56727e-05   0.000609624   0.0141945   0.00296082   -1.41072e-06   6.74019e-06   0   -4.23516e-22   8.47033e-22   -4.23516e-22
3.80695  2.56755e-05   0.000602669   0.0142014   0.00296082   -1.41489e-06   6.74436e-06   0   -4.23516e-22   0   -4.23516e-22
3.805  2.56782e-05   0.000595703   0.0142084   0.00296082   -1.41907e-06   6.74855e-06   0   -6.35275e-22   8.47033e-22   -6.35275e-22
3.80305  2.5681e-05   0.000588727   0.0142154   0.00296082   -1.42326e-06   6.75274e-06   0   -6.35275e-22   -8.47033e-22   -4.23516e-22
3.8011  2.56838e-05   0.00058174   0.0142224   0.00296082   -1.42745e-06   6.75693e-06   0   -2.11758e-22   0   -2.11758e-22
3.79915  2.56866e-05   0.000574742   0.0142294   0.00296082   -1.43165e-06   6.76113e-06   0   -4.23516e-22   -8.47033e-22   -4.23516e-22
3.7972  2.56894e-05   0.000567734   0.0142364   0.00296083   -1.43586e-06   6.76534e-06   0   -4.23516e-22   0   -2.11758e-22
3.79525  2.56922e-05   0.000560714   0.0142434   0.00296083   -1.44007e-06   6.76956e-06   0   -6.35275e-22   8.47033e-22   -6.35275e-22
3.7933  2.5695e-05   0.000553684   0.0142505   0.00296083   -1.44429e-06   6.77378e-06   0   -6.35275e-22   -8.47033e-22   -4.23516e-22
3.79135  2.56978e-05   0.000546643   0.0142575   0.00296083   -1.44851e-06   6.77801e-06   0   -4.23516e-22   -8.47033e-22   -4.23516e-22
3.7894  2.57006e-05   0.000539591   0.0142646   0.00296083   -1.45274e-06   6.78224e-06   0   -6.35275e-22   -8.47033e-22   -4.23516e-22
3.78745  2.57035e-05   0.000532528   0.0142716   0.00296083   -1.45698e-06   6.78648e-06   0   -6.35275e-22   0   -4.23516e-22
3.7855  2.57063e-05   0.000525455   0.0142787   0.00296083   -1.46123e-06   6.79073e-06   0   -6.35275e-22   -8.47033e-22   -6.35275e-22
3.78355  2.57092e-05   0.00051837   0.0142858   0.00296084   -1.46548e-06   6.79498e-06   0   -2.11758e-22   0   0
3.7816  2.5712e-05   0.000511275   0.0142929   0.00296084   -1.46974e-06   6.79924e-06   0   -6.35275e-22   8.47033e-22   -8.47033e-22
3.77965  2.57149e-05   0.000504168   0.0143   0.00296084   -1.474e-06   6.80351e-06   0   -6.35275e-22   0   -6.35275e-22
3.7777  2.57178e-05   0.00049705   0.0143071   0.00296084   -1.47827e-06   6.80778e-06   0   -2.11758e-22   0   -2.11758e-22
3.77575  2.57207e-05   0.000489922   0.0143143   0.00296084   -1.48255e-06   6.81206e-06   0   -6.35275e-22   -8.47033e-22   -6.35275e-22
3.7738  2.57235e-05   0.000482782   0.0143214   0.00296084   -1.48684e-06   6.81635e-06   0   -6.35275e-22   -8.47033e-22   -6.35275e-22
3.77185  2.57265e-05   0.000475631   0.0143286   0.00296084   -1.49113e-06   6.82065e-06   0   -4.23516e-22   8.47033e-22   -4.23516e-22
3.7699  2.57294e-05   0.00046847   0.0143358   0.00296084   -1.49543e-06   6.82495e-06   0   -4.23516e-22   8.47033e-22   -2.11758e-22
3.76795  2.57323e-05   0.000461297   0.0143429   0.00296085   -1.49973e-06   6.82925e-06   0   -4.23516e-22   0   -4.23516e-22
3.766  2.57352e-05   0.000454113   0.0143501   0.00296085   -1.50404e-06   6.83357e-06   0   -8.47033e-22   8.47033e-22   -6.35275e-22
3.76405  2.57381e-05   0.000446917   0.0143573   0.00296085   -1.50836e-06   6.83789e-06   0   -4.23516e-22   -8.47033e-22   -4.23516e-22
3.7621  2.57411e-05   0.000439711   0.0143645   0.00296085   -1.51268e-06   6.84221e-06   0   -2.11758e-22   0   -4.23516e-22
3.76015  2.5744e-05   0.000432493   0.0143718   0.00296085   -1.51701e-06   6.84655e-06   0   -2.11758e-22   0   -2.11758e-22
3.7582  2.5747e-05   0.000425265   0.014379   0.00296085   -1.52135e-06   6.85089e-06   0   -6.35275e-22   0   -4.23516e-22
3.75625  2.575e-05   0.000418024   0.0143862   0.00296085   -1.5257e-06   6.85524e-06   0   -4.23516e-22   0   -4.23516e-22
3.7543  2.5753e-05   0.000410773   0.0143935   0.00296086   -1.53005e-06   6.85959e-06   0   -2.11758e-22   8.47033e-22   0
3.75235  2.57559e-05   0.00040351   0.0144008   0.00296086   -1.53441e-06   6.86395e-06   0   -4.23516e-22   0   -4.23516e-22
3.7504  2.57589e-05   0.000396236   0.0144081   0.00296086   -1.53877e-06   6.86832e-06   0   -4.23516e-22   0   -4.23516e-22
3.74845  2.57619e-05   0.000388951   0.0144153   0.00296086   -1.54315e-06   6.87269e-06   0   -6.35275e-22   0   -6.35275e-22
3.7465  2.5765e-05   0.000381654   0.0144227   0.00296086   -1.54752e-06   6.87708e-06   0   -4.23516e-22   0   -4.23516e-22
3.74455  2.5768e-05   0.000374346   0.01443   0.00296086   -1.55191e-06   6.88146e-06   0   -4.23516e-22   -8.47033e-22   -4.23516e-22
3.7426  2.5771e-05   0.000367027   0.0144373   0.00296086   -1.5563e-06   6.88586e-06   0   -4.23516e-22   0   -4.23516e-22
3.74065  2.57741e-05   0.000359696   0.0144446   0.00296087   -1.5607e-06   6.89026e-06   0   -4.23516e-22   0   -4.23516e-22
3.7387  2.57771e-05   0.000352353   0.014452   0.00296087   -1.56511e-06   6.89467e-06   0   -4.23516e-22   -8.47033e-22   -4.23516e-22
3.73675  2.57802e-05   0.000344999   0.0144593   0.00296087   -1.56952e-06   6.89909e-06   0   -6.35275e-22   0   -6.35275e-22
3.7348  2.57832e-05   0.000337634   0.0144667   0.00296087   -1.57394e-06   6.90351e-06   0   -6.35275e-22   0   -6.35275e-22
3.73285  2.57863e-05   0.000330257   0.0144741   0.00296087   -1.57837e-06   6.90794e-06   0   -4.23516e-22   8.47033e-22   -4.23516e-22
3.7309  2.57894e-05   0.000322868   0.0144815   0.00296087   -1.5828e-06   6.91237e-06   0   -4.23516e-22   -8.47033e-22   -4.23516e-22
3.72895  2.57925e-05   0.000315468   0.0144889   0.00296087   -1.58724e-06   6.91682e-06   0   -4.23516e-22   8.47033e-22   -4.23516e-22
3.727  2.57956e-05   0.000308056   0.0144963   0.00296088   -1.59169e-06   6.92127e-06   0   -2.11758e-22   0   -2.11758e-22
3.72505  2.57987e-05   0.000300633   0.0145038   0.00296088   -1.59615e-06   6.92573e-06   0   -4.23516e-22   0   -4.23516e-22
3.7231  2.58018e-05   0.000293197   0.0145112   0.00296088   -1.60061e-06   6.93019e-06   0   -6.35275e-22   0   -4.23516e-22
3.72115  2.58049e-05   0.000285751   0.0145187   0.00296088   -1.60508e-06   6.93466e-06   0   -8.47033e-22   0   -6.35275e-22
3.7192  2.58081e-05   0.000278292   0.0145261   0.00296088   -1.60955e-06   6.93914e-06   0   -4.23516e-22   0   -6.35275e-22
3.71725  2.58112e-05   0.000270822   0.0145336   0.00296088   -1.61404e-06   6.94363e-06   0   -6.35275e-22   0   -4.23516e-22
3.7153  2.58143e-05   0.00026334   0.0145411   0.00296088   -1.61853e-06   6.94812e-06   0   -4.23516e-22   0   -2.11758e-22
3.71335  2.58175e-05   0.000255846   0.0145486   0.00296089   -1.62302e-06   6.95262e-06   0   -6.35275e-22   0   -6.35275e-22
3.7114  2.58207e-05   0.000248341   0.0145561   0.00296089   -1.62753e-06   6.95713e-06   0   -8.47033e-22   8.47033e-22   -6.35275e-22
3.70945  2.58239e-05   0.000240823   0.0145636   0.00296089   -1.63204e-06   6.96164e-06   0   -4.23516e-22   0   -2.11758e-22
3.7075  2.5827e-05   0.000233294   0.0145712   0.00296089   -1.63656e-06   6.96616e-06   0   -2.11758e-22   -8.47033e-22   0
3.70555  2.58302e-05   0.000225753   0.0145787   0.00296089   -1.64108e-06   6.97069e-06   0   -6.35275e-22   0   -6.35275e-22
3.7036  2.58334e-05   0.0002182   0.0145863   0.00296089   -1.64562e-06   6.97523e-06   0   -4.23516e-22   -8.47033e-22   -4.23516e-22
